V1(t) V2(t)
0 0
1.98503e-16 0.0980299
7.89106e-16 0.192216
1.76404e-15 0.282709
3.11571e-15 0.369653
2.5e-07 0.453188
2.2252e-06 0.533447
4.16129e-06 0.61056
6.05904e-06 0.684648
7.91921e-06 0.755832
9.74255e-06 0.824224
1.15298e-05 0.889934
1.32816e-05 0.953068
1.49988e-05 1.01373
1.66819e-05 1.07201
1.83317e-05 1.128
1.99489e-05 1.1818
2.1534e-05 1.23349
2.30878e-05 1.28315
2.46108e-05 1.33087
2.61036e-05 1.37671
2.75668e-05 1.42076
2.90011e-05 1.46308
3.0407e-05 1.50373
3.1785e-05 1.5428
3.31358e-05 1.58033
3.44598e-05 1.61639
3.57576e-05 1.65104
3.70297e-05 1.68433
3.82766e-05 1.71631
3.94988e-05 1.74703
4.06968e-05 1.77655
4.18711e-05 1.80491
4.30222e-05 1.83216
4.41504e-05 1.85834
4.52563e-05 1.88349
4.63403e-05 1.90766
4.74029e-05 1.93088
4.84444e-05 1.95318
4.94653e-05 1.97461
5.04659e-05 1.9952
5.14468e-05 2.01498
5.24082e-05 2.03399
5.33506e-05 2.05225
5.42743e-05 2.06979
5.51797e-05 2.08664
5.60673e-05 2.10283
5.69372e-05 2.11839
5.77899e-05 2.13333
5.86257e-05 2.14769
5.9195e-05 2.16149
5.80228e-05 2.17474
5.68739e-05 2.18748
5.57477e-05 2.19971
5.46438e-05 2.21147
5.35618e-05 2.22276
5.25012e-05 2.23361
5.14616e-05 2.24404
5.04426e-05 2.25406
4.94437e-05 2.26368
4.84647e-05 2.27293
4.7505e-05 2.28181
4.65643e-05 2.29035
4.56423e-05 2.29855
4.47385e-05 2.30643
4.38526e-05 2.314
4.29843e-05 2.32128
4.21331e-05 2.32827
4.12988e-05 2.33499
4.0481e-05 2.34144
3.96795e-05 2.34764
3.88937e-05 2.3536
3.81236e-05 2.35932
3.73687e-05 2.36482
3.66287e-05 2.37011
3.59034e-05 2.37518
3.51925e-05 2.38006
3.44956e-05 2.38475
3.38126e-05 2.38925
3.3143e-05 2.39358
3.24867e-05 2.39774
3.18434e-05 2.40173
3.12129e-05 2.40557
3.05948e-05 2.40926
2.9989e-05 2.4128
2.93952e-05 2.41621
2.88131e-05 2.41948
2.82426e-05 2.42263
2.76833e-05 2.42565
2.71352e-05 2.42855
2.65978e-05 2.43134
2.60712e-05 2.43402
2.55549e-05 2.43659
2.50489e-05 2.43907
2.45529e-05 2.44144
2.40667e-05 2.44373
2.35901e-05 2.44592
2.3123e-05 2.44803
2.26652e-05 2.45006
2.22163e-05 2.45201
2.17764e-05 2.45388
2.13452e-05 2.45568
2.09226e-05 2.4574
2.05083e-05 2.45906
2.01022e-05 2.46066
1.97041e-05 2.46219
2.07168e-05 2.46367
2.22867e-05 2.46508
2.38255e-05 2.46644
2.53339e-05 2.46774
2.68124e-05 2.46899
2.82616e-05 2.4702
2.96821e-05 2.47135
3.10745e-05 2.47246
3.24394e-05 2.47352
3.37772e-05 2.47455
3.50885e-05 2.47553
3.63738e-05 2.47647
3.76337e-05 2.47737
3.88687e-05 2.47824
4.00792e-05 2.47907
4.12657e-05 2.47987
4.24287e-05 2.48064
4.35687e-05 2.48138
4.46861e-05 2.48209
4.57814e-05 2.48277
4.6855e-05 2.48342
4.79074e-05 2.48405
4.89389e-05 2.48465
4.995e-05 2.48523
5.0941e-05 2.48578
5.19125e-05 2.48631
5.28647e-05 2.48682
5.3798e-05 2.48731
5.47129e-05 2.48778
5.56097e-05 2.48823
5.64887e-05 2.48867
5.73502e-05 2.48908
5.81948e-05 2.48948
5.90226e-05 2.48987
5.9834e-05 2.49023
6.06293e-05 2.49059
6.14089e-05 2.49092
6.21731e-05 2.49125
6.29221e-05 2.49156
6.36563e-05 2.49186
6.4376e-05 2.49215
6.50814e-05 2.49242
6.57728e-05 2.49269
6.64506e-05 2.49294
6.71149e-05 2.49318
6.63633e-05 2.49342
6.50492e-05 2.49364
6.37611e-05 2.49386
6.24985e-05 2.49407
6.1261e-05 2.49427
6.00479e-05 2.49446
5.88589e-05 2.49465
5.76934e-05 2.49483
5.6551e-05 2.495
5.54312e-05 2.49517
5.43336e-05 2.49533
5.32577e-05 2.49549
5.22031e-05 2.49564
5.11694e-05 2.49578
5.01562e-05 2.49592
4.9163e-05 2.49606
4.81895e-05 2.49619
4.72353e-05 2.49631
4.62999e-05 2.49643
4.53831e-05 2.49655
4.44845e-05 2.49666
4.36036e-05 2.49677
4.27402e-05 2.49688
4.18939e-05 2.49698
4.10643e-05 2.49708
4.02512e-05 2.49717
3.94542e-05 2.49726
3.86729e-05 2.49735
3.79071e-05 2.49743
3.71565e-05 2.49751
3.64207e-05 2.49759
3.56996e-05 2.49767
3.49927e-05 2.49774
3.42998e-05 2.49781
3.36206e-05 2.49788
3.29548e-05 2.49795
3.23023e-05 2.49801
3.16626e-05 2.49807
3.10357e-05 2.49813
3.04211e-05 2.49819
2.98187e-05 2.49825
2.92283e-05 2.4983
2.86495e-05 2.49835
2.80822e-05 2.4984
2.75261e-05 2.49845
2.69811e-05 2.4985
2.64468e-05 2.49854
2.59231e-05 2.49859
2.54098e-05 2.49863
2.49067e-05 2.49867
2.44135e-05 2.49871
2.39301e-05 2.49875
2.34562e-05 2.49879
2.29917e-05 2.49882
2.25365e-05 2.49886
2.3493e-05 2.49889
2.5008e-05 2.49892
2.64929e-05 2.49895
2.79485e-05 2.49898
2.93752e-05 2.499
3.07737e-05 2.49903
3.21445e-05 2.49905
3.34881e-05 2.49907
3.48051e-05 2.49909
3.60961e-05 2.49911
3.73615e-05 2.49912
3.86018e-05 2.49914
3.98176e-05 2.49915
4.10093e-05 2.49916
4.21774e-05 2.49918
4.33224e-05 2.49919
4.44447e-05 2.4992
4.55448e-05 2.49921
4.66231e-05 2.49921
4.768e-05 2.49922
4.8716e-05 2.49923
4.97315e-05 2.49923
5.07269e-05 2.49924
5.17026e-05 2.49924
5.26589e-05 2.49924
5.35964e-05 2.49925
5.45152e-05 2.49925
5.54159e-05 2.49925
5.62987e-05 2.49925
5.71641e-05 2.49925
5.80123e-05 2.49925
5.88437e-05 2.49925
5.96587e-05 2.49925
6.04575e-05 2.49925
6.12405e-05 2.49925
6.2008e-05 2.49925
6.27603e-05 2.49924
6.34977e-05 2.49924
6.42205e-05 2.49924
6.4929e-05 2.49924
6.56234e-05 2.49923
6.63041e-05 2.49923
6.69714e-05 2.49923
6.76254e-05 2.49922
6.80165e-05 2.49922
6.66696e-05 2.49922
6.53495e-05 2.49921
6.40554e-05 2.49921
6.27871e-05 2.49921
6.15438e-05 2.49921
6.03251e-05 2.49921
5.91306e-05 2.49921
5.79597e-05 2.49921
5.6812e-05 2.49921
5.56871e-05 2.49922
5.45844e-05 2.49922
5.35035e-05 2.49922
5.24441e-05 2.49922
5.14056e-05 2.49923
5.03877e-05 2.49923
4.93899e-05 2.49924
4.84119e-05 2.49924
4.74533e-05 2.49925
4.65137e-05 2.49925
4.55926e-05 2.49926
4.46898e-05 2.49927
4.38049e-05 2.49927
4.29375e-05 2.49928
4.20873e-05 2.49929
4.12539e-05 2.49929
4.0437e-05 2.4993
3.96363e-05 2.49931
3.88514e-05 2.49931
3.80821e-05 2.49932
3.7328e-05 2.49933
3.65889e-05 2.49934
3.58644e-05 2.49934
3.51542e-05 2.49935
3.44581e-05 2.49936
3.37758e-05 2.49937
3.3107e-05 2.49938
3.24514e-05 2.49938
3.18088e-05 2.49939
3.11789e-05 2.4994
3.05616e-05 2.49941
2.99564e-05 2.49941
2.93632e-05 2.49942
2.87818e-05 2.49943
2.82118e-05 2.49944
2.76532e-05 2.49945
2.71056e-05 2.49945
2.65689e-05 2.49946
2.60428e-05 2.49947
2.55271e-05 2.49948
2.50216e-05 2.49949
2.45262e-05 2.49949
2.40405e-05 2.4995
2.35645e-05 2.49951
2.30979e-05 2.49952
2.28905e-05 2.49952
2.44174e-05 2.49953
2.5914e-05 2.49954
2.7381e-05 2.49954
2.8819e-05 2.49954
3.02285e-05 2.49955
3.16101e-05 2.49955
3.29643e-05 2.49955
3.42917e-05 2.49955
3.55928e-05 2.49955
3.68682e-05 2.49955
3.81183e-05 2.49955
3.93436e-05 2.49955
4.05447e-05 2.49954
4.1722e-05 2.49954
4.2876e-05 2.49954
4.40072e-05 2.49953
4.51159e-05 2.49953
4.62027e-05 2.49952
4.7268e-05 2.49952
4.83121e-05 2.49951
4.93356e-05 2.49951
5.03389e-05 2.4995
5.13222e-05 2.4995
5.22861e-05 2.49949
5.32309e-05 2.49948
5.4157e-05 2.49948
5.50648e-05 2.49947
5.59546e-05 2.49946
5.68267e-05 2.49945
5.76816e-05 2.49945
5.85196e-05 2.49944
5.9341e-05 2.49943
6.01461e-05 2.49942
6.09352e-05 2.49941
6.17088e-05 2.49941
6.2467e-05 2.4994
6.32102e-05 2.49939
6.39387e-05 2.49938
6.46528e-05 2.49937
6.53527e-05 2.49936
6.60388e-05 2.49936
6.67113e-05 2.49935
6.73704e-05 2.49934
6.80165e-05 2.49933
6.83999e-05 2.49932
6.70454e-05 2.49931
6.57178e-05 2.49931
6.44165e-05 2.4993
6.3141e-05 2.4993
6.18907e-05 2.49929
6.06652e-05 2.49929
5.94639e-05 2.49929
5.82864e-05 2.49929
5.71323e-05 2.49928
5.6001e-05 2.49928
5.48921e-05 2.49928
5.38051e-05 2.49928
5.27397e-05 2.49928
5.16954e-05 2.49929
5.06717e-05 2.49929
4.96684e-05 2.49929
4.86848e-05 2.49929
4.77208e-05 2.4993
4.67759e-05 2.4993
4.58496e-05 2.4993
4.49417e-05 2.49931
4.40518e-05 2.49931
4.31795e-05 2.49932
4.23245e-05 2.49932
4.14864e-05 2.49933
4.06649e-05 2.49933
3.98597e-05 2.49934
3.90704e-05 2.49935
3.82968e-05 2.49935
3.75384e-05 2.49936
3.67951e-05 2.49936
3.60665e-05 2.49937
3.53524e-05 2.49938
3.46523e-05 2.49938
3.39662e-05 2.49939
3.32936e-05 2.4994
3.26343e-05 2.4994
3.19881e-05 2.49941
3.13547e-05 2.49942
3.07338e-05 2.49943
3.01252e-05 2.49943
2.95287e-05 2.49944
2.8944e-05 2.49945
2.83709e-05 2.49945
2.78091e-05 2.49946
2.72584e-05 2.49947
2.67187e-05 2.49948
2.61896e-05 2.49948
2.5671e-05 2.49949
2.51627e-05 2.4995
2.46644e-05 2.4995
2.4176e-05 2.49951
2.36973e-05 2.49952
2.32281e-05 2.49953
2.30181e-05 2.49953
2.45425e-05 2.49954
2.60366e-05 2.49954
2.75012e-05 2.49955
2.89368e-05 2.49955
3.0344e-05 2.49955
3.17233e-05 2.49956
3.30752e-05 2.49956
3.44005e-05 2.49956
3.56994e-05 2.49956
3.69727e-05 2.49956
3.82207e-05 2.49955
3.9444e-05 2.49955
4.06431e-05 2.49955
4.18185e-05 2.49955
4.29706e-05 2.49954
4.40998e-05 2.49954
4.52067e-05 2.49953
4.62917e-05 2.49953
4.73552e-05 2.49952
4.83977e-05 2.49952
4.94195e-05 2.49951
5.04211e-05 2.49951
5.14028e-05 2.4995
5.23651e-05 2.49949
5.33083e-05 2.49949
5.42329e-05 2.49948
5.51392e-05 2.49947
5.60275e-05 2.49946
5.68982e-05 2.49946
5.77517e-05 2.49945
5.85882e-05 2.49944
5.94083e-05 2.49943
6.0212e-05 2.49942
6.09999e-05 2.49942
6.17722e-05 2.49941
6.25291e-05 2.4994
6.32711e-05 2.49939
6.39984e-05 2.49938
6.47113e-05 2.49937
6.54101e-05 2.49937
6.6095e-05 2.49936
6.67664e-05 2.49935
6.74244e-05 2.49934
6.80695e-05 2.49933
6.84517e-05 2.49932
6.70963e-05 2.49932
6.57677e-05 2.49931
6.44654e-05 2.4993
6.31889e-05 2.4993
6.19376e-05 2.49929
6.07112e-05 2.49929
5.9509e-05 2.49929
5.83306e-05 2.49929
5.71756e-05 2.49928
5.60435e-05 2.49928
5.49337e-05 2.49928
5.38459e-05 2.49928
5.27797e-05 2.49929
5.17346e-05 2.49929
5.07102e-05 2.49929
4.9706e-05 2.49929
4.87218e-05 2.49929
4.7757e-05 2.4993
4.68114e-05 2.4993
4.58844e-05 2.4993
4.49758e-05 2.49931
4.40852e-05 2.49931
4.32123e-05 2.49932
4.23566e-05 2.49932
4.15179e-05 2.49933
4.06958e-05 2.49933
3.98899e-05 2.49934
3.91001e-05 2.49935
3.83258e-05 2.49935
3.75669e-05 2.49936
3.6823e-05 2.49936
3.60939e-05 2.49937
3.53792e-05 2.49938
3.46786e-05 2.49938
3.39919e-05 2.49939
3.33188e-05 2.4994
3.26591e-05 2.4994
3.20124e-05 2.49941
3.13785e-05 2.49942
3.07571e-05 2.49943
3.01481e-05 2.49943
2.95511e-05 2.49944
2.8966e-05 2.49945
2.83924e-05 2.49945
2.78302e-05 2.49946
2.72791e-05 2.49947
2.67389e-05 2.49948
2.62095e-05 2.49948
2.56905e-05 2.49949
